Frequency [Hz];Amplitude ratio;Phase shift [deg]
1;1.0000043370731393;-0.015169328960897746
6;1.0001596234591812;-0.09044140788833037
11;1.0005583084013625;-0.1639415114340179
16;1.0012294473599368;-0.23591958767020016
21;1.0021875875222834;-0.30745472135862656
26;1.0034346920511579;-0.3795581295923005
31;1.0049676299439338;-0.45293636362342043
36;1.0067823673478005;-0.5280546388538859
41;1.008875399154664;-0.6052301182179257
46;1.0112440493256123;-0.6846927684263345
51;1.0138864441308293;-0.7666186001022032
56;1.016801431449291;-0.8511473252517107
61;1.0199885159893056;-0.9383922425683846
66;1.0234478185602334;-1.0284463912886286
71;1.0271800532769606;-1.1213868945869574
76;1.0311865157904114;-1.2172783689428892
81;1.035469077680125;-1.3161757897549522
86;1.0400301841393564;-1.4181269854303804
91;1.0448728534786302;-1.5231748381282317
96;1.050000677830071;-1.631359230978914
101;1.0554178249174857;-1.7427187673380693
106;1.061129041007389;-1.857292283151687
111;1.0671396552715455;-1.9751201725491727
116;1.0734555858334192;-2.0962455467522303
121;1.0800833477755685;-2.2207152463318143
126;1.087030063373182;-2.3485807264913863
131;1.0943034748018847;-2.479898834395191
136;1.101911959551544;-2.614732496669558
141;1.1098645487649652;-2.753151334169471
146;1.1181709487124254;-2.8952322199958447
151;1.126841565610443;-3.0410597956292853
156;1.1358875339962093;-3.19072695895719
161;1.1453207488776023;-3.344335336946055
166;1.155153901892659;-3.501995754774851
171;1.1654005217316596;-3.663828712417189
176;1.1760750190995517;-3.8299648789544727
181;1.1871927365263057;-4.000545614330048
186;1.1987700033680664;-4.17572352782429
191;1.2108241963827076;-4.355663082248684
196;1.2233738063099913;-4.540541252728783
201;1.2364385109391818;-4.730548248976071
206;1.250039255206237;-4.925888310142021
211;1.2641983389290739;-5.126780581709781
216;1.2789395128636178;-5.333460084416639
221;1.2942880838462192;-5.546178785923551
226;1.3102710298804228;-5.765206786866646
231;1.3269171261292603;-5.990833634056667
236;1.3442570828892746;-6.223369774952752
241;1.362323696750897;-6.463148169150655
246;1.3811520162931348;-6.710526074521691
251;1.400779523820452;-6.965887027850534
256;1.4212463348281903;-7.229643042390609
261;1.4425954170818567;-7.502237047734529
266;1.4648728314172446;-7.78414560084326
271;1.4881279966148273;-8.07588190106244
276;1.5124139809753419;-8.37799914656055
281;1.537787823525982;-8.691094274950485
286;1.5643108881197971;-9.015812137018488
291;1.5920492540558377;-9.35285015961957
296;1.6210741472443244;-9.70296356206531
301;1.651462416368092;-10.066971199914539
306;1.6832970589448077;-10.445762121198625
311;1.7166678026664195;-10.840302933021325
316;1.751671747870103;-11.25164609146185
321;1.788414077458247;-11.680939245111725
326;1.8270088410025274;-12.129435782772694
331;1.8675798200919307;-12.59850675925842
336;1.910261482148205;-13.08965440034787
341;1.9552000298348178;-13.604527419234875
346;2.0025545526836743;-14.144938412821094
351;2.0524982864529995;-14.712883647401172
356;2.1052199837189822;-15.310565590094814
361;2.1609253958815846;-15.940418595003568
366;2.219838861551311;-16.605138211368256
371;2.2822049883632656;-17.307714644213252
376;2.3482904034952967;-18.05147096430108
381;2.4183855309520736;-18.840106730248362
386;2.492806328795882;-19.67774774534965
391;2.5718958838817576;-20.569002714973596
396;2.65602571105641;-21.51902758115571
401;2.7455965324323515;-22.533598263730322
406;2.8410382124692686;-23.619192392664797
411;2.9428083858793523;-24.783080314286753
416;3.05138912452854;-26.033425105085
421;3.1672807300578096;-27.379390398300423
426;3.290991391812481;-28.831253328817194
431;3.4230209954024273;-30.40051755953245
436;3.5638367916866596;-32.10001779557246
441;3.713837942349328;-33.944001935452505
446;3.873305190018459;-35.948169462291474
451;4.042331182693755;-38.12963422732207
456;4.220726585961182;-40.506765982407416
461;4.407897556626078;-43.09884805929934
466;4.602692297265554;-45.92547010762312
471;4.8032195588551705;-49.00555924469309
476;5.006651717108756;-52.355949441802466
481;5.209040760010903;-55.9894128827972
486;5.405196842151612;-59.912149687373
491;5.588701507760531;-64.12087491454788
496;5.7521399991818765;-68.59985904197559
501;5.887621198971343;-73.31853270077023
506;5.987592183127515;-78.23045565009718
511;6.045847040780269;-83.27441835090282
516;6.05851190063025;-88.37806424184234
521;6.024727620883925;-93.46372162713622
526;5.9468077115529;-98.45537609223602
531;5.829817093116621;-103.2852814700784
536;5.680714581097864;-107.89884734963157
541;5.507323872223664;-112.25707197557833
546;5.317395101067476;-116.3365651104368
551;5.117922631300719;-120.12777367023193
556;4.914764973994676;-123.63223102234048
561;4.712524835232162;-126.85955872131731
566;4.514608612484366;-129.8247125171985
571;4.323384430278587;-132.54571885393727
576;4.140376721783768;-135.0419643926443
581;3.96645820163417;-137.3329933907445
586;3.802019003409995;-139.43772081310928
591;3.6471055775584658;-141.37396033369058
596;3.501529345916593;-143.15817705330502
601;3.3649486691606527;-144.80539249224447
606;3.23692890050875;-146.32918753172703
611;3.1169852669054334;-147.74176454610372
616;3.004612727534766;-149.0540421680301
621;2.899306196437511;-150.27576514733533
626;2.8005737743030097;-151.41561816100918
631;2.7079449944820144;-152.48133682516396
636;2.6209755708644593;-153.47981209468622
641;2.5392497335845605;-154.41718614444517
646;2.4623809349779235;-155.2989390297782
651;2.3900114831408152;-156.12996615498048
656;2.3218114958443152;-156.91464699834978
661;2.2574774484558477;-157.65690576158119
666;2.1967305040808074;-158.36026470437182
671;2.1393147533031596;-159.02789094128553
676;2.0849954478989123;-159.662637449414
681;2.0335572827217567;-160.26707898281148
686;1.9848027589673711;-160.84354352606312
691;1.9385506475696197;-161.39413985261592
696;1.8946345616635294;-161.92078168832623
701;1.852901640501176;-162.4252089196303
706;1.8132113429510763;-162.90900623005942
711;1.7754343460532522;-163.37361949894293
716;1.7394515425467092;-163.820370252012
721;1.7051531304831593;-164.25046841491775
726;1.6724377877433592;-164.66502358695428
731;1.641211924306815;-165.0650550230191
736;1.6113890053705242;-165.45150048653989
741;1.5828889387838927;-165.82522411425597
746;1.5556375207073274;-166.1870234149197
751;1.5295659338724423;-166.53763550776603
756;1.504610293296275;-166.8777426926367
761;1.4807112347640599;-167.20797743161816
766;1.4578135418346312;-167.52892681168905
771;1.4358658075336364;-167.84113654893773
776;1.4148201272797376;-168.14511458719895
781;1.3946318199370384;-168.4413343372975
786;1.375259174203755;-168.7302375973236
791;1.3566632178337643;-169.01223718937933
796;1.3388075074463341;-169.28771934390517
801;1.3216579369116699;-169.55704585894526
806;1.3051825625085471;-169.8205560584411
811;1.2893514432369877;-170.07856857080324
816;1.2741364948360534;-170.3313829465306
821;1.2595113562061162;-170.5792811314831
826;1.2454512670683477;-170.82252881052148
831;1.23193295581335;-171.06137663456943
836;1.2189345365971413;-171.2960613427011
841;1.2064354148377932;-171.52680678957967
846;1.1944162003508612;-171.75382488744933
851;1.1828586274375763;-171.97731647089503
856;1.1717454813075943;-172.19747209171172
861;1.1610605302787456;-172.41447275045292
866;1.150788463250512;-172.62849057054942
871;1.1409148319966038;-172.8396894202823
876;1.1314259978655483;-173.0482254873618
881;1.122309082517367;-173.25424781038626
886;1.1135519223594135;-173.4578987710339
891;1.1051430263760955;-173.65931455046265
896;1.0970715370754354;-173.8586255530594
901;1.0893271943010385;-174.05595680037965
906;1.0819003016809665;-174.251428297851
911;1.0747816955057645;-174.4451553765758
916;1.067962715846585;-174.63724901235346
921;1.0614351797412613;-174.827816123851
926;1.0551913562914348;-175.0169598516786
931;1.0492239435277075;-175.20477981997266
936;1.0435260469122833;-175.3913723819487
941;1.0380911593599442;-175.57683085076366
946;1.0329131426685274;-175.76124571691207
951;1.0279862102594308;-175.94470485328253
956;1.023304911137213;-176.1272937089065
961;1.0188641149851372;-176.3090954923515
966;1.0146589983205734;-176.49019134563585
971;1.0106850316406635;-176.67066050947548
976;1.0069379674945687;-176.85058048061222
981;1.0034138294240191;-177.0300271619204
986;1.0001089017188818;-177.20907500593788
991;0.9970197199389933;-177.38779715242444
996;0.9941430621577173;-177.56626556051125
1001;0.9914759408865407;-177.7445511359678
1006;0.9890155956435907;-177.92272385408344
1011;0.9867594861322492;-178.10085287862924
1016;0.9847052859991031;-178.27900667734323
1021;0.9828508771432848;-178.45725313435713
1026;0.981194344551927;-178.63565965996474
1031;0.9797339716388982;-178.81429329811317
1036;0.9784682360662973;-178.99322083198467
1041;0.9773958060303581;-179.1725088880223
1046;0.9765155369954501;-179.35222403874215
1051;0.9758264688617834;-179.53243290466787
1056;0.975327823554276;-179.71320225571185
1061;0.9750190030217646;-179.8945991123276
1066;0.9748995876374184;-180.07669084674916
1071;0.9749693349928298;-180.25954528463507
1076;0.9752281790797827;-180.44323080743231
1081;0.9756762298552304;-180.62781645577783
1086;0.9763137731864638;-180.8133720342576
1091;0.9771412711749027;-180.99996821784876
1096;0.9781593628583617;-181.18767666037579
1101;0.979368865293046;-181.37657010532038
1106;0.9807707750179491;-181.5667224993335
1111;0.982366269905716;-181.75820910881117
1116;0.9841567114054732;-181.9511066399071
1121;0.9861436471845478;-182.14549336237246
1126;0.9883288141774613;-182.34144923762878
1131;0.9907141420520935;-182.5390560515011
1136;0.9933017571044133;-182.738397552059
1141;0.9960939865947817;-182.9395595930389
1146;0.9990933635404533;-183.14263028334636
1151;1.0023026319805848;-183.34770014316834
1156;1.0057247527318447;-183.55486226725688
1161;1.0093629096545367;-183.76421249598297
1166;1.0132205164510775;-183.97584959479715
1171;1.0173012240206847;-184.18987544277834
1176;1.0216089283962466;-184.40639523099892
1181;1.0261477792915457;-184.62551767148577
1186;1.0309221892893699;-184.84735521761388
1191;1.035936843703472;-185.0720242968314
1196;1.0411967111499423;-185.2996455566817
1201;1.046707054866265;-185.53034412516283
1206;1.052473444819195;-185.7642498865447
1211;1.0585017706456061;-186.0014977738531
1216;1.0647982554735862;-186.24222807932475
1221;1.0713694706744255;-186.4865867842443
1226;1.0782223515995217;-186.7347259096868
1231;1.0853642143599278;-186.98680388981677
1236;1.0928027737099268;-187.2429859695297
1241;1.1005461620999832;-187.5034446283731
1246;1.1086029499683716;-187.7683600328461
1251;1.1169821673448725;-188.03792051935645
1256;1.1256933268441125;-188.3123231103075
1261;1.1347464481302243;-188.5917740660016
1266;1.1441520839386732;-188.87648947527833
1271;1.1539213477450656;-189.16669588806124
1276;1.1640659431745455;-189.46263099326248
1281;1.174598195248824;-189.7645443457999
1286;1.1855310835708637;-190.0726981468096
1291;1.1968782775494788;-190.387368081499
1296;1.2086541737675338;-190.70884421947738
1301;1.2208739355974656;-191.03743198282845
1306;1.2335535351664992;-191.37345318765543
1311;1.246709797770386;-191.71724716533305
1316;1.260360448828395;-192.06917197024885
1321;1.274524163462902;-192.4296056814077
1326;1.2892206187734265;-192.798947805915
1331;1.304470548856129;-193.1776207930358
1336;1.3202958025947231;-193.56607166827112
1341;1.3367194042154367;-193.96477379767185
1346;1.353765616555545;-194.37422879344777
1351;1.3714600069395078;-194.79496857280446
1356;1.3898295154862923;-195.22755758285754
1361;1.4089025255821883;-195.67259520541648
1366;1.4287089361415108;-196.13071835638823
1371;1.4492802351377239;-196.60260429550587
1376;1.470649573713256;-197.0889736630038
1381;1.4928518399605308;-197.59059376071286
1386;1.515923731199846;-198.10828209577411
1391;1.5399038232509483;-198.64291020570772
1396;1.564832634791083;-199.1954077838368
1401;1.59075268439683;-199.76676712392972
1406;1.6177085372611073;-200.35804790225296
1411;1.645746837837616;-200.97038231381168
1416;1.6749163237654254;-201.60498057716208
1421;1.7052678153348955;-202.26313681847938
1426;1.7368541734355236;-202.94623534016873
1431;1.7697302173338414;-203.6557572716904
1436;1.8039525917174215;-204.39328758981853
1441;1.839579570154398;-205.16052248143546
1446;1.8766707794001969;-205.95927700323023
1451;1.9152868257729878;-206.79149296807273
1456;1.9554888010588969;-207.6592469558973
1461;1.9973376410482795;-208.5647583058753
1466;2.0408933048135487;-209.51039689433605
1471;2.0862137372222893;-210.49869043684257
1476;2.133353570997643;-211.53233097021493
1481;2.1823625180437207;-212.61418006800528
1486;2.2332833930353404;-213.74727221772562
1491;2.286149705914205;-214.9348156368753
1496;2.340982754701908;-216.18018962497382
1501;2.397788147075161;-217.48693733910332
1506;2.456551680089896;-218.85875264201877
1511;2.517234514553771;-220.2994594097099
1516;2.5797675968438276;-221.81298141045664
1521;2.6440453102820274;-223.40330059980346
1526;2.7099183851386126;-225.07440144753824
1531;2.777186166107065;-226.83019877179427
1536;2.8455884338311903;-228.67444656931156
1541;2.914797106802328;-230.61062558899224
1546;2.9844083128454866;-232.64180800809405
1551;3.0539355112156388;-234.77049866033707
1556;3.1228045540966622;-236.99845395387388
1561;3.1903517749260635;-239.32648199381762
1566;3.25582634046498;-241.75423050279537
1571;3.3183981488494165;-244.27997279637864
1576;3.377172431633702;-246.90040601033246
1581;3.4312118603526445;-249.6104794524974
1586;3.4795663254611298;-252.40327359331192
1591;3.5213096535795816;-255.26995089700608
1596;3.5555814363931804;-258.19979754612103
1601;3.5816310243646563;-261.1803695461419
1606;3.5988598236102485;-264.197747741072
1611;3.606857579632126;-267.2368947744443
1616;3.6054285382084474;-270.28209467661065
1621;3.5946043097411615;-273.31744478325163
1626;3.574641814946815;-276.3273623376221
1631;3.546006571298644;-279.2970660133969
1636;3.5093434079948587;-282.2129961947301
1641;3.4654381052192056;-285.0631463546674
1646;3.415174196625704;-287.83728944273304
1651;3.3594891890944245;-290.5270955221046
1656;3.2993338514108523;-293.1261478533597
1661;3.235637227433772;-295.62987272779526
1666;3.169278895170583;-298.0354029883744
1671;3.1010689386296977;-300.34139650109324
1676;3.031735264958181;-302.54782954335286
1681;2.9619173423743517;-304.6557820754369
1686;2.892165145138367;-306.6672280492122
1691;2.822942020022354;-308.5848399986291
1696;2.754630268556948;-310.4118136266787
1701;2.6875384072403223;-312.1517152053712
1706;2.6219092726245194;-313.80835241591495
1711;2.557928343878628;-315.3856677365685
1716;2.4957318405418567;-316.88765253433706
1721;2.435414307467154;-318.3182795097867
1726;2.377035519918158;-319.6814509606342
1731;2.3206266315837016;-320.98096036458946
1736;2.266195551405838;-322.2204649517271
1741;2.2137315768291668;-323.403467179323
1746;2.163209336445374;-324.533303294194
1751;2.1145921084593877;-325.61313744057185
1756;2.067834586558177;-326.6459600282344
1761;2.022885164424312;-327.6345893067541
1766;1.97968780639134;-328.58167529351346
1771;1.9381835660800073;-329.48970537523013
1776;1.898311808313264;-330.361011046816
1781;1.8600111828636785;-331.19777537022327
1786;1.8232203920646541;-332.0020408326982
1791;1.7878787882623721;-332.77571736181125
1796;1.7539268316226182;-333.52059031678857
1801;1.7213064339783308;-334.2383283247809
1806;1.6899612102019113;-334.93049086916545
1811;1.65983665497447;-335.5985355668014
1816;1.6308802597479692;-336.2438250940804
1821;1.603041582097622;-336.8676337390166
1826;1.576272277479244;-337.4711535696787
1831;1.5505261015839538;-338.0555002188997
1836;1.525758889966374;-338.6217182921736
1841;1.5019285203671715;-339.17078641055036
1846;1.478994862113596;-339.7036219036598
1851;1.4569197161281742;-340.22108517010287
1856;1.435666748374762;-340.72398372364506
1861;1.4152014189970588;-341.2130759441588
1866;1.395490908935785;-341.6890745522814
1871;1.3765040454284125;-342.15264982640747
1876;1.3582112274846476;-342.60443258004034
1881;1.34058435217903;-343.04501691676404
1886;1.323596742398381;-343.47496277922033
1891;1.3072230765177715;-343.89479830755164
1896;1.2914393203471837;-344.30502202180514
1901;1.2762226615856869;-344.7061048418476
1906;1.2615514469366453;-345.0984919573911
1911;1.247405121971207;-345.4826045598364
1916;1.233764173775765;-345.85884144676527
1921;1.2206100763790175;-346.22758050909727
1926;1.207925238923263;-346.58918011015265
1931;1.1956929565216885;-346.94398036513894
1936;1.1838973637260424;-347.29230432890574
1941;1.172523390517012;-347.63445909918585
1946;1.1615567207212298;-347.9707368419583
1951;1.1509837527535722;-348.30141574503824
1956;1.140791562580615;-348.62676090549866
1961;1.1309678688001432;-348.9470251560797
1966;1.1215009997322234;-349.26244983531853
1971;1.1123798624189465;-349.5732655057538
1976;1.1035939134325248;-349.8796926242008
1981;1.0951331313944848;-350.18194216777846
1986;1.086987991112373;-350.4802162190631
1991;1.079149439244103;-350.7747085134851
1996;1.071608871404269;-351.06560495182566
2001;1.0643581106307571;-351.3530840804511
2006;1.057389387134217;-351.63731754171033
2011;1.0506953192570283;-351.91847049673356
2016;1.0442688955724717;-352.1967020226947
2021;1.038103458058726;-352.47216548643974
2026;1.0321926862861466;-352.7450088962424
2031;1.0265305825599724;-353.01537523330694
2036;1.0211114579640583;-353.28340276452496
2041;1.0159299192546978;-353.5492253378737
2046;1.010980856556717;-353.812972661746
2051;1.0062594318171203;-354.0747705694068
2056;1.0017610679744353;-354.3347412696838
2061;0.9974814388046608;-354.5930035849252
2066;0.9934164594072786;-354.8496731771824
2071;0.989562277297281;-355.10486276351065
2076;0.9859152640714255;-355.35868232122243
2081;0.9824720076191593;-355.6112392838706
2086;0.9792293048506625;-355.8626387286905
2091;0.9761841549164392;-356.11298355618413
2096;0.9733337528946933;-356.36237466248474
2101;0.9706754839244593;-356.61091110510796
2106;0.9682069177640892;-356.85869026265465
2111;0.9659258037562354;-357.1058079890035
2116;0.9638300661819271;-357.352358762501
2121;0.9619177999877095;-357.5984358306314
2126;0.9601872668711313;-357.84413135062493
2131;0.958636891711095;-358.0895365264435
2136;0.957265259330755;-358.3347417425627
2141;0.9560711115817856;-358.57983669495366
2146;0.955053344739886;-358.8249105196525
2151;0.9542110072024185;-359.0700519192951
2156;0.9535432974800463;-359.31534928798027
2161;0.9530495624751752;-359.56089083481857
2166;0.9527292960408883;-359.8067647065144
2171;0.9525821378149382;-360.05305910932555
2176;0.9526078723241951;-360.29986243073625
2181;0.9528064283557475;-360.5472633611807
2186;0.9531778785916479;-360.7953510161508
2191;0.9537224395050464;-361.0442150590209
2196;0.9544404715162194;-361.2939458249278
2201;0.9553324794077029;-361.54463444604073
2206;0.9563991129984795;-361.7963729785684
2211;0.9576411680778578;-362.0492545318478
2216;0.959059587600378;-362.3033733998743
2221;0.9606554631437597;-362.5588251956357
2226;0.9624300366325954;-362.8157069886259
2231;0.9643847023311413;-363.0741174459272
2236;0.9665210091092423;-363.33415697725917
2241;0.9688406629860772;-363.5959278844133
2246;0.9713455299570611;-363.85953451550523
2251;0.9740376391098932;-364.1250834244973
2256;0.9769191860363684;-364.3926835364647
2261;0.9799925365472353;-364.66244631910314
2266;0.9832602306979358;-364.93448596099665
2271;0.9867249871337709;-365.2089195571985
2276;0.9903897077635078;-365.4858673026999
2281;0.9942574827711328;-365.7654526944028
2286;0.9983315959758923;-366.04780274223845
2291;1.0026155305513473;-366.3330481901198
2296;1.007112975114577;-366.6213237474518
2301;1.0118278301971084;-366.9127683319694
2306;1.0167642151094811;-367.2075253247209
2311;1.021926475211583;-367.50574283806435
2316;1.0273191896011158;-367.8075739976015
2321;1.0329471792325144;-368.1131772390296
2326;1.038815515478574;-368.4227166209589
2331;1.044929529146719;-368.73636215480514
